   5     263
   5.02     272
   5.04     257
   5.06     263
   5.08     263
   5.1     220
   5.12     248
   5.14     245
   5.16     244
   5.18     244
   5.2     244
   5.22     256
   5.24     259
   5.26     251
   5.28     233
   5.3     262
   5.32     253
   5.34     248
   5.36     239
   5.38     214
   5.4     244
   5.42     227
   5.44     252
   5.46     207
   5.48     244
   5.5     218
   5.52     250
   5.54     219
   5.56     216
   5.58     231
   5.6     220
   5.62     213
   5.64     174
   5.66     230
   5.68     216
   5.7     248
   5.72     231
   5.74     199
   5.76     225
   5.78     215
   5.8     215
   5.82     208
   5.84     198
   5.86     203
   5.88     192
   5.9     228
   5.92     221
   5.94     212
   5.96     233
   5.98     209
   6     209
   6.02     195
   6.04     185
   6.06     194
   6.08     217
   6.1     199
   6.12     209
   6.14     211
   6.16     209
   6.18     169
   6.2     200
   6.22     211
   6.24     202
   6.26     193
   6.28     195
   6.3     215
   6.32     194
   6.34     210
   6.36     185
   6.38     171
   6.4     167
   6.42     198
   6.44     203
   6.46     202
   6.48     188
   6.5     194
   6.52     186
   6.54     171
   6.56     178
   6.58     197
   6.6     196
   6.62     180
   6.64     203
   6.66     190
   6.68     191
   6.7     179
   6.72     167
   6.74     179
   6.76     187
   6.78     162
   6.8     208
   6.82     164
   6.84     165
   6.86     186
   6.88     155
   6.9     172
   6.92     196
   6.94     197
   6.96     178
   6.98     175
   7     160
   7.02     189
   7.04     167
   7.06     176
   7.08     175
   7.1     161
   7.12     163
   7.14     169
   7.16     152
   7.18     176
   7.2     168
   7.22     166
   7.24     154
   7.26     170
   7.28     169
   7.3     186
   7.32     166
   7.34     171
   7.36     160
   7.38     161
   7.4     160
   7.42     160
   7.44     194
   7.46     162
   7.48     169
   7.5     177
   7.52     157
   7.54     159
   7.56     160
   7.58     146
   7.6     167
   7.62     150
   7.64     171
   7.66     164
   7.68     158
   7.7     150
   7.72     135
   7.74     140
   7.76     161
   7.78     135
   7.8     141
   7.82     167
   7.84     155
   7.86     147
   7.88     153
   7.9     144
   7.92     160
   7.94     178
   7.96     168
   7.98     163
   8     167
   8.02     142
   8.04     145
   8.06     144
   8.08     168
   8.1     159
   8.12     135
   8.14     158
   8.16     162
   8.18     166
   8.2     150
   8.22     164
   8.24     170
   8.26     177
   8.28     137
   8.3     151
   8.32     163
   8.34     140
   8.36     176
   8.38     159
   8.4     156
   8.42     137
   8.44     155
   8.46     133
   8.48     147
   8.5     162
   8.52     148
   8.54     169
   8.56     136
   8.58     159
   8.6     146
   8.62     140
   8.64     145
   8.66     139
   8.68     143
   8.7     133
   8.72     145
   8.74     148
   8.76     138
   8.78     129
   8.8     127
   8.82     164
   8.84     130
   8.86     170
   8.88     153
   8.9     121
   8.92     149
   8.94     124
   8.96     159
   8.98     126
   9     144
   9.02     149
   9.04     139
   9.06     131
   9.08     164
   9.1     138
   9.12     141
   9.14     152
   9.16     134
   9.18     154
   9.2     161
   9.22     159
   9.24     147
   9.26     127
   9.28     151
   9.3     130
   9.32     129
   9.34     136
   9.36     127
   9.38     159
   9.4     142
   9.42     142
   9.44     128
   9.46     135
   9.48     139
   9.5     145
   9.52     116
   9.54     138
   9.56     133
   9.58     142
   9.6     107
   9.62     124
   9.64     117
   9.66     126
   9.68     144
   9.7     126
   9.72     161
   9.74     126
   9.76     120
   9.78     140
   9.8     133
   9.82     145
   9.84     124
   9.86     148
   9.88     121
   9.9     108
   9.92     131
   9.94     116
   9.96     130
   9.98     121
   10     143
   10.02     154
   10.04     128
   10.06     125
   10.08     138
   10.1     143
   10.12     135
   10.14     114
   10.16     131
   10.18     135
   10.2     111
   10.22     134
   10.24     150
   10.26     136
   10.28     125
   10.3     129
   10.32     125
   10.34     112
   10.36     157
   10.38     135
   10.4     120
   10.42     128
   10.44     139
   10.46     138
   10.48     122
   10.5     108
   10.52     118
   10.54     128
   10.56     132
   10.58     130
   10.6     115
   10.62     121
   10.64     144
   10.66     118
   10.68     132
   10.7     107
   10.72     119
   10.74     148
   10.76     125
   10.78     136
   10.8     128
   10.82     133
   10.84     113
   10.86     130
   10.88     108
   10.9     120
   10.92     127
   10.94     123
   10.96     142
   10.98     123
   11     118
   11.02     117
   11.04     110
   11.06     104
   11.08     123
   11.1     119
   11.12     122
   11.14     118
   11.16     117
   11.18     101
   11.2     128
   11.22     151
   11.24     130
   11.26     111
   11.28     123
   11.3     122
   11.32     106
   11.34     144
   11.36     115
   11.38     126
   11.4     118
   11.42     124
   11.44     117
   11.46     100
   11.48     121
   11.5     118
   11.52     141
   11.54     103
   11.56     113
   11.58     120
   11.6     110
   11.62     103
   11.64     119
   11.66     115
   11.68     132
   11.7     119
   11.72     134
   11.74     141
   11.76     129
   11.78     130
   11.8     131
   11.82     114
   11.84     97
   11.86     117
   11.88     128
   11.9     125
   11.92     116
   11.94     116
   11.96     128
   11.98     117
   12     105
   12.02     110
   12.04     121
   12.06     136
   12.08     107
   12.1     120
   12.12     130
   12.14     89
   12.16     123
   12.18     114
   12.2     132
   12.22     130
   12.24     140
   12.26     121
   12.28     92
   12.3     134
   12.32     116
   12.34     129
   12.36     135
   12.38     94
   12.4     113
   12.42     123
   12.44     104
   12.46     111
   12.48     113
   12.5     119
   12.52     128
   12.54     99
   12.56     102
   12.58     125
   12.6     127
   12.62     121
   12.64     108
   12.66     126
   12.68     130
   12.7     110
   12.72     119
   12.74     131
   12.76     120
   12.78     115
   12.8     95
   12.82     103
   12.84     124
   12.86     87
   12.88     118
   12.9     109
   12.92     103
   12.94     114
   12.96     109
   12.98     117
   13     108
   13.02     132
   13.04     124
   13.06     130
   13.08     122
   13.1     110
   13.12     116
   13.14     108
   13.16     123
   13.18     119
   13.2     115
   13.22     128
   13.24     105
   13.26     122
   13.28     118
   13.3     113
   13.32     109
   13.34     121
   13.36     118
   13.38     122
   13.4     107
   13.42     104
   13.44     103
   13.46     131
   13.48     116
   13.5     134
   13.52     136
   13.54     139
   13.56     124
   13.58     109
   13.6     105
   13.62     116
   13.64     117
   13.66     108
   13.68     106
   13.7     145
   13.72     136
   13.74     131
   13.76     131
   13.78     124
   13.8     124
   13.82     136
   13.84     116
   13.86     114
   13.88     129
   13.9     112
   13.92     113
   13.94     114
   13.96     111
   13.98     107
   14     121
   14.02     138
   14.04     122
   14.06     115
   14.08     123
   14.1     90
   14.12     116
   14.14     138
   14.16     119
   14.18     135
   14.2     109
   14.22     115
   14.24     126
   14.26     127
   14.28     118
   14.3     114
   14.32     127
   14.34     124
   14.36     135
   14.38     126
   14.4     151
   14.42     121
   14.44     111
   14.46     151
   14.48     134
   14.5     122
   14.52     121
   14.54     126
   14.56     138
   14.58     119
   14.6     137
   14.62     121
   14.64     138
   14.66     143
   14.68     131
   14.7     143
   14.72     121
   14.74     141
   14.76     129
   14.78     117
   14.8     146
   14.82     139
   14.84     121
   14.86     136
   14.88     131
   14.9     144
   14.92     141
   14.94     161
   14.96     105
   14.98     136
   15     136
   15.02     148
   15.04     138
   15.06     133
   15.08     118
   15.1     137
   15.12     130
   15.14     126
   15.16     137
   15.18     132
   15.2     123
   15.22     156
   15.24     134
   15.26     127
   15.28     126
   15.3     136
   15.32     137
   15.34     143
   15.36     140
   15.38     100
   15.4     131
   15.42     120
   15.44     112
   15.46     128
   15.48     116
   15.5     130
   15.52     128
   15.54     139
   15.56     135
   15.58     144
   15.6     119
   15.62     150
   15.64     127
   15.66     111
   15.68     120
   15.7     125
   15.72     141
   15.74     142
   15.76     138
   15.78     123
   15.8     151
   15.82     143
   15.84     129
   15.86     120
   15.88     138
   15.9     138
   15.92     114
   15.94     146
   15.96     125
   15.98     126
   16     129
   16.02     156
   16.04     131
   16.06     126
   16.08     130
   16.1     128
   16.12     131
   16.14     124
   16.16     127
   16.18     134
   16.2     122
   16.22     142
   16.24     104
   16.26     132
   16.28     131
   16.3     139
   16.32     129
   16.34     139
   16.36     132
   16.38     125
   16.4     118
   16.42     121
   16.44     135
   16.46     138
   16.48     118
   16.5     138
   16.52     114
   16.54     133
   16.56     130
   16.58     137
   16.6     127
   16.62     115
   16.64     126
   16.66     148
   16.68     132
   16.7     129
   16.72     127
   16.74     136
   16.76     141
   16.78     131
   16.8     150
   16.82     139
   16.84     132
   16.86     118
   16.88     133
   16.9     127
   16.92     129
   16.94     125
   16.96     136
   16.98     166
   17     131
   17.02     124
   17.04     149
   17.06     127
   17.08     140
   17.1     121
   17.12     148
   17.14     142
   17.16     130
   17.18     144
   17.2     130
   17.22     137
   17.24     131
   17.26     150
   17.28     139
   17.3     147
   17.32     164
   17.34     150
   17.36     139
   17.38     152
   17.4     160
   17.42     126
   17.44     140
   17.46     141
   17.48     166
   17.5     159
   17.52     128
   17.54     155
   17.56     141
   17.58     153
   17.6     139
   17.62     172
   17.64     165
   17.66     149
   17.68     145
   17.7     130
   17.72     175
   17.74     177
   17.76     149
   17.78     159
   17.8     159
   17.82     158
   17.84     173
   17.86     163
   17.88     170
   17.9     183
   17.92     185
   17.94     164
   17.96     178
   17.98     174
   18     167
   18.02     159
   18.04     185
   18.06     188
   18.08     199
   18.1     192
   18.12     168
   18.14     148
   18.16     179
   18.18     164
   18.2     168
   18.22     177
   18.24     167
   18.26     183
   18.28     196
   18.3     179
   18.32     166
   18.34     191
   18.36     174
   18.38     189
   18.4     191
   18.42     182
   18.44     145
   18.46     203
   18.48     153
   18.5     196
   18.52     190
   18.54     188
   18.56     181
   18.58     189
   18.6     175
   18.62     162
   18.64     165
   18.66     176
   18.68     148
   18.7     163
   18.72     165
   18.74     180
   18.76     145
   18.78     164
   18.8     156
   18.82     140
   18.84     142
   18.86     169
   18.88     168
   18.9     191
   18.92     175
   18.94     158
   18.96     139
   18.98     148
   19     143
   19.02     148
   19.04     150
   19.06     181
   19.08     131
   19.1     143
   19.12     126
   19.14     144
   19.16     149
   19.18     138
   19.2     138
   19.22     129
   19.24     151
   19.26     147
   19.28     142
   19.3     142
   19.32     137
   19.34     151
   19.36     164
   19.38     142
   19.4     157
   19.42     139
   19.44     151
   19.46     164
   19.48     134
   19.5     149
   19.52     139
   19.54     146
   19.56     134
   19.58     132
   19.6     150
   19.62     142
   19.64     139
   19.66     146
   19.68     134
   19.7     136
   19.72     151
   19.74     136
   19.76     122
   19.78     143
   19.8     145
   19.82     120
   19.84     166
   19.86     160
   19.88     133
   19.9     161
   19.92     124
   19.94     143
   19.96     138
   19.98     132
   20     153
   20.02     145
   20.04     154
   20.06     152
   20.08     123
   20.1     157
   20.12     160
   20.14     183
   20.16     156
   20.18     146
   20.2     153
   20.22     142
   20.24     149
   20.26     132
   20.28     146
   20.3     138
   20.32     140
   20.34     182
   20.36     154
   20.38     139
   20.4     148
   20.42     116
   20.44     144
   20.46     133
   20.48     151
   20.5     130
   20.52     133
   20.54     151
   20.56     161
   20.58     151
   20.6     139
   20.62     150
   20.64     126
   20.66     159
   20.68     160
   20.7     137
   20.72     147
   20.74     172
   20.76     147
   20.78     140
   20.8     134
   20.82     143
   20.84     131
   20.86     118
   20.88     162
   20.9     148
   20.92     165
   20.94     157
   20.96     149
   20.98     163
   21     158
   21.02     131
   21.04     151
   21.06     161
   21.08     142
   21.1     138
   21.12     142
   21.14     129
   21.16     157
   21.18     178
   21.2     187
   21.22     148
   21.24     151
   21.26     136
   21.28     145
   21.3     147
   21.32     155
   21.34     171
   21.36     156
   21.38     145
   21.4     151
   21.42     145
   21.44     137
   21.46     154
   21.48     127
   21.5     163
   21.52     124
   21.54     174
   21.56     151
   21.58     121
   21.6     128
   21.62     152
   21.64     126
   21.66     136
   21.68     147
   21.7     142
   21.72     157
   21.74     159
   21.76     148
   21.78     133
   21.8     174
   21.82     145
   21.84     181
   21.86     140
   21.88     162
   21.9     157
   21.92     137
   21.94     142
   21.96     147
   21.98     138
   22     148
   22.02     146
   22.04     146
   22.06     124
   22.08     145
   22.1     142
   22.12     150
   22.14     138
   22.16     145
   22.18     131
   22.2     152
   22.22     145
   22.24     154
   22.26     164
   22.28     144
   22.3     155
   22.32     163
   22.34     144
   22.36     148
   22.38     156
   22.4     151
   22.42     160
   22.44     133
   22.46     136
   22.48     159
   22.5     165
   22.52     176
   22.54     148
   22.56     131
   22.58     152
   22.6     151
   22.62     158
   22.64     171
   22.66     158
   22.68     150
   22.7     168
   22.72     161
   22.74     122
   22.76     145
   22.78     147
   22.8     148
   22.82     146
   22.84     131
   22.86     151
   22.88     152
   22.9     171
   22.92     146
   22.94     143
   22.96     157
   22.98     164
   23     140
   23.02     158
   23.04     165
   23.06     145
   23.08     136
   23.1     137
   23.12     140
   23.14     150
   23.16     153
   23.18     152
   23.2     161
   23.22     160
   23.24     187
   23.26     172
   23.28     181
   23.3     165
   23.32     159
   23.34     155
   23.36     162
   23.38     144
   23.4     146
   23.42     158
   23.44     141
   23.46     168
   23.48     149
   23.5     158
   23.52     164
   23.54     156
   23.56     155
   23.58     130
   23.6     155
   23.62     150
   23.64     152
   23.66     151
   23.68     141
   23.7     143
   23.72     153
   23.74     151
   23.76     141
   23.78     156
   23.8     147
   23.82     152
   23.84     157
   23.86     151
   23.88     165
   23.9     159
   23.92     142
   23.94     152
   23.96     169
   23.98     162
   24     163
   24.02     164
   24.04     178
   24.06     168
   24.08     163
   24.1     158
   24.12     160
   24.14     141
   24.16     123
   24.18     135
   24.2     152
   24.22     162
   24.24     123
   24.26     132
   24.28     146
   24.3     149
   24.32     151
   24.34     151
   24.36     166
   24.38     123
   24.4     167
   24.42     157
   24.44     132
   24.46     144
   24.48     131
   24.5     141
   24.52     136
   24.54     138
   24.56     144
   24.58     152
   24.6     144
   24.62     156
   24.64     124
   24.66     166
   24.68     136
   24.7     152
   24.72     135
   24.74     155
   24.76     128
   24.78     137
   24.8     157
   24.82     138
   24.84     138
   24.86     152
   24.88     130
   24.9     139
   24.92     155
   24.94     156
   24.96     153
   24.98     145
   25     147
   25.02     127
   25.04     153
   25.06     142
   25.08     139
   25.1     136
   25.12     126
   25.14     133
   25.16     141
   25.18     125
   25.2     138
   25.22     154
   25.24     139
   25.26     131
   25.28     152
   25.3     136
   25.32     144
   25.34     115
   25.36     137
   25.38     146
   25.4     142
   25.42     134
   25.44     156
   25.46     161
   25.48     168
   25.5     140
   25.52     113
   25.54     150
   25.56     118
   25.58     128
   25.6     136
   25.62     148
   25.64     163
   25.66     157
   25.68     141
   25.7     154
   25.72     166
   25.74     143
   25.76     145
   25.78     160
   25.8     164
   25.82     155
   25.84     143
   25.86     145
   25.88     150
   25.9     165
   25.92     138
   25.94     164
   25.96     138
   25.98     141
   26     126
   26.02     138
   26.04     160
   26.06     162
   26.08     145
   26.1     122
   26.12     157
   26.14     144
   26.16     138
   26.18     157
   26.2     150
   26.22     131
   26.24     152
   26.26     123
   26.28     148
   26.3     152
   26.32     154
   26.34     147
   26.36     124
   26.38     148
   26.4     136
   26.42     142
   26.44     141
   26.46     140
   26.48     155
   26.5     138
   26.52     131
   26.54     137
   26.56     122
   26.58     140
   26.6     163
   26.62     156
   26.64     146
   26.66     155
   26.68     148
   26.7     136
   26.72     113
   26.74     134
   26.76     160
   26.78     146
   26.8     132
   26.82     132
   26.84     151
   26.86     133
   26.88     151
   26.9     152
   26.92     134
   26.94     144
   26.96     142
   26.98     141
   27     135
   27.02     117
   27.04     134
   27.06     108
   27.08     121
   27.1     127
   27.12     133
   27.14     121
   27.16     132
   27.18     129
   27.2     129
   27.22     145
   27.24     139
   27.26     137
   27.28     145
   27.3     106
   27.32     146
   27.34     109
   27.36     133
   27.38     140
   27.4     150
   27.42     128
   27.44     131
   27.46     130
   27.48     136
   27.5     121
   27.52     137
   27.54     138
   27.56     123
   27.58     132
   27.6     144
   27.62     153
   27.64     127
   27.66     161
   27.68     105
   27.7     130
   27.72     125
   27.74     138
   27.76     143
   27.78     137
   27.8     110
   27.82     126
   27.84     119
   27.86     128
   27.88     121
   27.9     135
   27.92     119
   27.94     146
   27.96     127
   27.98     115
   28     126
   28.02     153
   28.04     131
   28.06     124
   28.08     127
   28.1     116
   28.12     119
   28.14     140
   28.16     125
   28.18     144
   28.2     134
   28.22     124
   28.24     141
   28.26     153
   28.28     155
   28.3     138
   28.32     133
   28.34     136
   28.36     145
   28.38     147
   28.4     132
   28.42     135
   28.44     133
   28.46     140
   28.48     141
   28.5     114
   28.52     137
   28.54     148
   28.56     130
   28.58     129
   28.6     132
   28.62     125
   28.64     134
   28.66     144
   28.68     154
   28.7     148
   28.72     153
   28.74     155
   28.76     147
   28.78     161
   28.8     152
   28.82     153
   28.84     160
   28.86     152
   28.88     173
   28.9     150
   28.92     153
   28.94     153
   28.96     154
   28.98     169
   29     161
   29.02     183
   29.04     166
   29.06     156
   29.08     175
   29.1     189
   29.12     177
   29.14     163
   29.16     170
   29.18     199
   29.2     205
   29.22     178
   29.24     183
   29.26     189
   29.28     199
   29.3     215
   29.32     210
   29.34     179
   29.36     205
   29.38     202
   29.4     222
   29.42     210
   29.44     235
   29.46     272
   29.48     240
   29.5     243
   29.52     271
   29.54     300
   29.56     272
   29.58     307
   29.6     303
   29.62     299
   29.64     293
   29.66     320
   29.68     374
   29.7     320
   29.72     378
   29.74     352
   29.76     352
   29.78     402
   29.8     393
   29.82     430
   29.84     397
   29.86     427
   29.88     426
   29.9     427
   29.92     443
   29.94     407
   29.96     433
   29.98     425
   30     439
   30.02     492
   30.04     482
   30.06     483
   30.08     465
   30.1     496
   30.12     419
   30.14     483
   30.16     476
   30.18     463
   30.2     448
   30.22     453
   30.24     442
   30.26     487
   30.28     498
   30.3     454
   30.32     434
   30.34     415
   30.36     412
   30.38     414
   30.4     379
   30.42     420
   30.44     394
   30.46     355
   30.48     391
   30.5     375
   30.52     384
   30.54     375
   30.56     321
   30.58     335
   30.6     320
   30.62     298
   30.64     289
   30.66     274
   30.68     280
   30.7     270
   30.72     267
   30.74     284
   30.76     240
   30.78     267
   30.8     251
   30.82     246
   30.84     229
   30.86     214
   30.88     233
   30.9     207
   30.92     213
   30.94     193
   30.96     216
   30.98     207
   31     193
   31.02     170
   31.04     196
   31.06     174
   31.08     191
   31.1     190
   31.12     197
   31.14     154
   31.16     163
   31.18     173
   31.2     162
   31.22     174
   31.24     172
   31.26     160
   31.28     161
   31.3     170
   31.32     167
   31.34     169
   31.36     162
   31.38     156
   31.4     163
   31.42     149
   31.44     168
   31.46     167
   31.48     162
   31.5     168
   31.52     172
   31.54     151
   31.56     163
   31.58     133
   31.6     173
   31.62     150
   31.64     159
   31.66     192
   31.68     139
   31.7     140
   31.72     170
   31.74     162
   31.76     165
   31.78     136
   31.8     168
   31.82     146
   31.84     161
   31.86     148
   31.88     162
   31.9     132
   31.92     167
   31.94     173
   31.96     149
   31.98     148
   32     147
   32.02     130
   32.04     139
   32.06     174
   32.08     132
   32.1     104
   32.12     141
   32.14     160
   32.16     136
   32.18     144
   32.2     144
   32.22     138
   32.24     153
   32.26     153
   32.28     125
   32.3     148
   32.32     127
   32.34     163
   32.36     147
   32.38     144
   32.4     153
   32.42     140
   32.44     159
   32.46     144
   32.48     134
   32.5     155
   32.52     157
   32.54     146
   32.56     146
   32.58     136
   32.6     134
   32.62     144
   32.64     146
   32.66     150
   32.68     157
   32.7     140
   32.72     153
   32.74     175
   32.76     148
   32.78     133
   32.8     156
   32.82     137
   32.84     159
   32.86     152
   32.88     162
   32.9     143
   32.92     131
   32.94     157
   32.96     135
   32.98     153
   33     163
   33.02     161
   33.04     157
   33.06     140
   33.08     151
   33.1     161
   33.12     146
   33.14     168
   33.16     150
   33.18     150
   33.2     155
   33.22     145
   33.24     174
   33.26     143
   33.28     150
   33.3     160
   33.32     175
   33.34     182
   33.36     160
   33.38     144
   33.4     150
   33.42     171
   33.44     178
   33.46     165
   33.48     158
   33.5     174
   33.52     164
   33.54     177
   33.56     155
   33.58     166
   33.6     159
   33.62     174
   33.64     160
   33.66     185
   33.68     194
   33.7     179
   33.72     175
   33.74     171
   33.76     169
   33.78     169
   33.8     169
   33.82     197
   33.84     176
   33.86     179
   33.88     161
   33.9     173
   33.92     199
   33.94     190
   33.96     199
   33.98     198
   34     165
   34.02     200
   34.04     192
   34.06     214
   34.08     207
   34.1     210
   34.12     193
   34.14     172
   34.16     219
   34.18     206
   34.2     212
   34.22     226
   34.24     197
   34.26     206
   34.28     243
   34.3     244
   34.32     221
   34.34     258
   34.36     267
   34.38     253
   34.4     254
   34.42     296
   34.44     298
   34.46     291
   34.48     288
   34.5     261
   34.52     282
   34.54     314
   34.56     298
   34.58     325
   34.6     346
   34.62     344
   34.64     323
   34.66     380
   34.68     367
   34.7     372
   34.72     391
   34.74     419
   34.76     430
   34.78     445
   34.8     420
   34.82     502
   34.84     514
   34.86     481
   34.88     554
   34.9     557
   34.92     578
   34.94     589
   34.96     578
   34.98     677
   35     662
   35.02     705
   35.04     689
   35.06     722
   35.08     768
   35.1     773
   35.12     860
   35.14     844
   35.16     895
   35.18     886
   35.2     999
   35.22     909
   35.24     927
   35.26     937
   35.28     1033
   35.3     1013
   35.32     1032
   35.34     1035
   35.36     1104
   35.38     1118
   35.4     1203
   35.42     1145
   35.44     1166
   35.46     1162
   35.48     1194
   35.5     1149
   35.52     1192
   35.54     1145
   35.56     1167
   35.58     1193
   35.6     1107
   35.62     1190
   35.64     1068
   35.66     1106
   35.68     1102
   35.7     1050
   35.72     1094
   35.74     1047
   35.76     1025
   35.78     953
   35.8     956
   35.82     966
   35.84     911
   35.86     929
   35.88     847
   35.9     805
   35.92     807
   35.94     715
   35.96     744
   35.98     720
   36     667
   36.02     653
   36.04     614
   36.06     574
   36.08     571
   36.1     540
   36.12     527
   36.14     521
   36.16     544
   36.18     539
   36.2     477
   36.22     455
   36.24     439
   36.26     424
   36.28     402
   36.3     393
   36.32     369
   36.34     420
   36.36     346
   36.38     325
   36.4     325
   36.42     316
   36.44     308
   36.46     303
   36.48     281
   36.5     289
   36.52     274
   36.54     274
   36.56     264
   36.58     266
   36.6     271
   36.62     241
   36.64     242
   36.66     235
   36.68     263
   36.7     226
   36.72     225
   36.74     225
   36.76     220
   36.78     251
   36.8     226
   36.82     215
   36.84     198
   36.86     223
   36.88     253
   36.9     198
   36.92     200
   36.94     203
   36.96     203
   36.98     222
   37     194
   37.02     176
   37.04     200
   37.06     192
   37.08     189
   37.1     181
   37.12     195
   37.14     169
   37.16     199
   37.18     186
   37.2     190
   37.22     168
   37.24     182
   37.26     167
   37.28     197
   37.3     187
   37.32     176
   37.34     178
   37.36     154
   37.38     173
   37.4     173
   37.42     170
   37.44     159
   37.46     165
   37.48     145
   37.5     149
   37.52     150
   37.54     137
   37.56     155
   37.58     143
   37.6     144
   37.62     144
   37.64     153
   37.66     141
   37.68     131
   37.7     142
   37.72     132
   37.74     123
   37.76     124
   37.78     130
   37.8     137
   37.82     133
   37.84     129
   37.86     153
   37.88     134
   37.9     129
   37.92     127
   37.94     142
   37.96     124
   37.98     141
   38     120
   38.02     110
   38.04     113
   38.06     120
   38.08     126
   38.1     122
   38.12     135
   38.14     127
   38.16     104
   38.18     111
   38.2     109
   38.22     116
   38.24     112
   38.26     135
   38.28     116
   38.3     105
   38.32     109
   38.34     98
   38.36     109
   38.38     110
   38.4     110
   38.42     114
   38.44     114
   38.46     114
   38.48     120
   38.5     111
   38.52     122
   38.54     105
   38.56     103
   38.58     119
   38.6     126
   38.62     127
   38.64     108
   38.66     118
   38.68     108
   38.7     104
   38.72     96
   38.74     128
   38.76     127
   38.78     111
   38.8     129
   38.82     95
   38.84     106
   38.86     119
   38.88     118
   38.9     98
   38.92     122
   38.94     108
   38.96     106
   38.98     106
   39     113
   39.02     116
   39.04     112
   39.06     116
   39.08     105
   39.1     112
   39.12     118
   39.14     110
   39.16     117
   39.18     124
   39.2     91
   39.22     111
   39.24     117
   39.26     113
   39.28     93
   39.3     103
   39.32     92
   39.34     113
   39.36     103
   39.38     121
   39.4     118
   39.42     117
   39.44     107
   39.46     109
   39.48     107
   39.5     106
   39.52     120
   39.54     110
   39.56     141
   39.58     110
   39.6     116
   39.62     119
   39.64     120
   39.66     109
   39.68     121
   39.7     118
   39.72     120
   39.74     123
   39.76     118
   39.78     122
   39.8     102
   39.82     119
   39.84     124
   39.86     137
   39.88     131
   39.9     108
   39.92     103
   39.94     112
   39.96     103
   39.98     114
   40     129
   40.02     153
   40.04     118
   40.06     113
   40.08     121
   40.1     119
   40.12     107
   40.14     127
   40.16     112
   40.18     120
   40.2     116
   40.22     112
   40.24     131
   40.26     123
   40.28     135
   40.3     124
   40.32     113
   40.34     125
   40.36     99
   40.38     123
   40.4     110
   40.42     112
   40.44     128
   40.46     127
   40.48     130
   40.5     110
   40.52     107
   40.54     118
   40.56     111
   40.58     111
   40.6     132
   40.62     121
   40.64     116
   40.66     124
   40.68     121
   40.7     135
   40.72     128
   40.74     108
   40.76     145
   40.78     124
   40.8     107
   40.82     134
   40.84     113
   40.86     132
   40.88     137
   40.9     104
   40.92     132
   40.94     97
   40.96     112
   40.98     118
   41     139
   41.02     116
   41.04     135
   41.06     126
   41.08     131
   41.1     125
   41.12     116
   41.14     110
   41.16     126
   41.18     113
   41.2     110
   41.22     140
   41.24     123
   41.26     113
   41.28     126
   41.3     117
   41.32     132
   41.34     131
   41.36     139
   41.38     126
   41.4     119
   41.42     115
   41.44     136
   41.46     135
   41.48     120
   41.5     122
   41.52     124
   41.54     115
   41.56     121
   41.58     114
   41.6     132
   41.62     124
   41.64     122
   41.66     125
   41.68     126
   41.7     128
   41.72     137
   41.74     116
   41.76     124
   41.78     117
   41.8     120
   41.82     143
   41.84     126
   41.86     125
   41.88     129
   41.9     136
   41.92     139
   41.94     119
   41.96     141
   41.98     141
   42     134
   42.02     139
   42.04     151
   42.06     142
   42.08     148
   42.1     140
   42.12     149
   42.14     173
   42.16     135
   42.18     157
   42.2     142
   42.22     166
   42.24     165
   42.26     165
   42.28     160
   42.3     173
   42.32     150
   42.34     156
   42.36     155
   42.38     195
   42.4     175
   42.42     164
   42.44     203
   42.46     213
   42.48     182
   42.5     184
   42.52     191
   42.54     182
   42.56     202
   42.58     231
   42.6     188
   42.62     230
   42.64     218
   42.66     230
   42.68     219
   42.7     231
   42.72     227
   42.74     216
   42.76     226
   42.78     257
   42.8     244
   42.82     257
   42.84     261
   42.86     232
   42.88     265
   42.9     245
   42.92     302
   42.94     283
   42.96     278
   42.98     269
   43     309
   43.02     304
   43.04     301
   43.06     305
   43.08     310
   43.1     306
   43.12     304
   43.14     321
   43.16     342
   43.18     330
   43.2     319
   43.22     289
   43.24     301
   43.26     319
   43.28     303
   43.3     314
   43.32     298
   43.34     349
   43.36     284
   43.38     302
   43.4     331
   43.42     299
   43.44     295
   43.46     281
   43.48     311
   43.5     300
   43.52     303
   43.54     260
   43.56     266
   43.58     283
   43.6     213
   43.62     217
   43.64     242
   43.66     220
   43.68     229
   43.7     222
   43.72     211
   43.74     238
   43.76     206
   43.78     189
   43.8     192
   43.82     199
   43.84     195
   43.86     183
   43.88     175
   43.9     174
   43.92     155
   43.94     171
   43.96     197
   43.98     147
   44     168
   44.02     168
   44.04     158
   44.06     171
   44.08     166
   44.1     184
   44.12     158
   44.14     163
   44.16     135
   44.18     147
   44.2     139
   44.22     161
   44.24     144
   44.26     135
   44.28     168
   44.3     175
   44.32     145
   44.34     134
   44.36     140
   44.38     117
   44.4     122
   44.42     113
   44.44     149
   44.46     130
   44.48     147
   44.5     122
   44.52     143
   44.54     134
   44.56     127
   44.58     129
   44.6     117
   44.62     128
   44.64     129
   44.66     124
   44.68     126
   44.7     118
   44.72     137
   44.74     122
   44.76     144
   44.78     131
   44.8     108
   44.82     139
   44.84     131
   44.86     118
   44.88     126
   44.9     123
   44.92     145
   44.94     131
   44.96     105
   44.98     124
   45     107
   45.02     108
   45.04     117
   45.06     122
   45.08     135
   45.1     110
   45.12     121
   45.14     119
   45.16     106
   45.18     111
   45.2     132
   45.22     104
   45.24     103
   45.26     109
   45.28     109
   45.3     131
   45.32     118
   45.34     113
   45.36     136
   45.38     105
   45.4     126
   45.42     137
   45.44     115
   45.46     140
   45.48     116
   45.5     128
   45.52     101
   45.54     112
   45.56     107
   45.58     100
   45.6     111
   45.62     108
   45.64     114
   45.66     110
   45.68     118
   45.7     108
   45.72     108
   45.74     105
   45.76     111
   45.78     122
   45.8     116
   45.82     132
   45.84     104
   45.86     113
   45.88     121
   45.9     117
   45.92     128
   45.94     131
   45.96     119
   45.98     120
   46     108
   46.02     111
   46.04     145
   46.06     115
   46.08     110
   46.1     117
   46.12     119
   46.14     114
   46.16     115
   46.18     124
   46.2     118
   46.22     105
   46.24     112
   46.26     113
   46.28     104
   46.3     107
   46.32     133
   46.34     115
   46.36     91
   46.38     103
   46.4     116
   46.42     109
   46.44     117
   46.46     112
   46.48     101
   46.5     118
   46.52     127
   46.54     119
   46.56     119
   46.58     120
   46.6     132
   46.62     104
   46.64     135
   46.66     112
   46.68     113
   46.7     102
   46.72     110
   46.74     106
   46.76     140
   46.78     105
   46.8     117
   46.82     119
   46.84     130
   46.86     111
   46.88     118
   46.9     121
   46.92     122
   46.94     105
   46.96     104
   46.98     120
   47     105
   47.02     121
   47.04     131
   47.06     103
   47.08     118
   47.1     127
   47.12     121
   47.14     107
   47.16     98
   47.18     119
   47.2     123
   47.22     119
   47.24     108
   47.26     128
   47.28     123
   47.3     124
   47.32     134
   47.34     118
   47.36     118
   47.38     119
   47.4     117
   47.42     137
   47.44     128
   47.46     138
   47.48     110
   47.5     105
   47.52     101
   47.54     115
   47.56     90
   47.58     116
   47.6     108
   47.62     101
   47.64     109
   47.66     121
   47.68     137
   47.7     111
   47.72     117
   47.74     114
   47.76     117
   47.78     102
   47.8     103
   47.82     99
   47.84     105
   47.86     125
   47.88     113
   47.9     108
   47.92     123
   47.94     123
   47.96     113
   47.98     110
   48     130
   48.02     122
   48.04     118
   48.06     122
   48.08     119
   48.1     99
   48.12     122
   48.14     143
   48.16     125
   48.18     114
   48.2     120
   48.22     108
   48.24     121
   48.26     108
   48.28     101
   48.3     112
   48.32     104
   48.34     127
   48.36     126
   48.38     108
   48.4     139
   48.42     114
   48.44     100
   48.46     122
   48.48     124
   48.5     118
   48.52     132
   48.54     133
   48.56     116
   48.58     125
   48.6     140
   48.62     104
   48.64     116
   48.66     106
   48.68     96
   48.7     125
   48.72     116
   48.74     124
   48.76     124
   48.78     118
   48.8     121
   48.82     128
   48.84     113
   48.86     110
   48.88     133
   48.9     110
   48.92     97
   48.94     99
   48.96     111
   48.98     96
   49     125
   49.02     97
   49.04     106
   49.06     126
   49.08     105
   49.1     117
   49.12     121
   49.14     104
   49.16     131
   49.18     99
   49.2     118
   49.22     128
   49.24     119
   49.26     122
   49.28     136
   49.3     116
   49.32     123
   49.34     140
   49.36     93
   49.38     110
   49.4     118
   49.42     131
   49.44     124
   49.46     119
   49.48     122
   49.5     131
   49.52     148
   49.54     106
   49.56     110
   49.58     115
   49.6     130
   49.62     143
   49.64     126
   49.66     126
   49.68     102
   49.7     125
   49.72     119
   49.74     113
   49.76     107
   49.78     115
   49.8     123
   49.82     111
   49.84     125
   49.86     120
   49.88     136
   49.9     122
   49.92     121
   49.94     110
   49.96     117
   49.98     125
   50     122
   50.02     125
   50.04     105
   50.06     128
   50.08     122
   50.1     115
   50.12     107
   50.14     119
   50.16     110
   50.18     115
   50.2     112
   50.22     116
   50.24     122
   50.26     128
   50.28     113
   50.3     108
   50.32     122
   50.34     103
   50.36     117
   50.38     119
   50.4     134
   50.42     115
   50.44     117
   50.46     115
   50.48     121
   50.5     108
   50.52     113
   50.54     135
   50.56     112
   50.58     100
   50.6     115
   50.62     115
   50.64     141
   50.66     110
   50.68     119
   50.7     104
   50.72     132
   50.74     140
   50.76     113
   50.78     121
   50.8     132
   50.82     139
   50.84     130
   50.86     125
   50.88     108
   50.9     117
   50.92     112
   50.94     115
   50.96     102
   50.98     135
   51     110
   51.02     128
   51.04     127
   51.06     113
   51.08     128
   51.1     109
   51.12     124
   51.14     131
   51.16     122
   51.18     123
   51.2     122
   51.22     120
   51.24     115
   51.26     133
   51.28     109
   51.3     121
   51.32     137
   51.34     98
   51.36     124
   51.38     121
   51.4     101
   51.42     100
   51.44     138
   51.46     129
   51.48     102
   51.5     118
   51.52     114
   51.54     119
   51.56     138
   51.58     128
   51.6     140
   51.62     97
   51.64     111
   51.66     123
   51.68     135
   51.7     141
   51.72     125
   51.74     142
   51.76     117
   51.78     105
   51.8     131
   51.82     123
   51.84     124
   51.86     117
   51.88     140
   51.9     129
   51.92     123
   51.94     139
   51.96     122
   51.98     133
   52     124
   52.02     114
   52.04     123
   52.06     127
   52.08     122
   52.1     121
   52.12     124
   52.14     113
   52.16     125
   52.18     124
   52.2     146
   52.22     119
   52.24     111
   52.26     128
   52.28     116
   52.3     150
   52.32     111
   52.34     121
   52.36     131
   52.38     149
   52.4     115
   52.42     134
   52.44     140
   52.46     138
   52.48     110
   52.5     137
   52.52     127
   52.54     129
   52.56     144
   52.58     123
   52.6     122
   52.62     128
   52.64     120
   52.66     156
   52.68     135
   52.7     143
   52.72     134
   52.74     127
   52.76     123
   52.78     132
   52.8     125
   52.82     147
   52.84     150
   52.86     130
   52.88     155
   52.9     138
   52.92     133
   52.94     140
   52.96     155
   52.98     151
   53     166
   53.02     169
   53.04     177
   53.06     165
   53.08     182
   53.1     172
   53.12     177
   53.14     202
   53.16     196
   53.18     201
   53.2     200
   53.22     172
   53.24     197
   53.26     177
   53.28     175
   53.3     199
   53.32     165
   53.34     220
   53.36     229
   53.38     222
   53.4     186
   53.42     208
   53.44     239
   53.46     193
   53.48     218
   53.5     214
   53.52     212
   53.54     203
   53.56     216
   53.58     226
   53.6     227
   53.62     241
   53.64     236
   53.66     214
   53.68     229
   53.7     222
   53.72     214
   53.74     229
   53.76     230
   53.78     194
   53.8     189
   53.82     210
   53.84     213
   53.86     193
   53.88     194
   53.9     202
   53.92     211
   53.94     213
   53.96     185
   53.98     193
   54     205
   54.02     182
   54.04     188
   54.06     176
   54.08     190
   54.1     209
   54.12     195
   54.14     200
   54.16     172
   54.18     167
   54.2     172
   54.22     182
   54.24     183
   54.26     178
   54.28     184
   54.3     165
   54.32     158
   54.34     185
   54.36     176
   54.38     160
   54.4     151
   54.42     148
   54.44     168
   54.46     125
   54.48     155
   54.5     136
   54.52     141
   54.54     159
   54.56     141
   54.58     156
   54.6     148
   54.62     139
   54.64     158
   54.66     132
   54.68     147
   54.7     137
   54.72     125
   54.74     138
   54.76     139
   54.78     137
   54.8     143
   54.82     154
   54.84     140
   54.86     144
   54.88     148
   54.9     141
   54.92     139
   54.94     135
   54.96     146
   54.98     157
   55     148
   55.02     150
   55.04     137
   55.06     154
   55.08     146
   55.1     124
   55.12     155
   55.14     153
   55.16     137
   55.18     154
   55.2     167
   55.22     143
   55.24     141
   55.26     150
   55.28     123
   55.3     138
   55.32     138
   55.34     152
   55.36     150
   55.38     153
   55.4     150
   55.42     146
   55.44     135
   55.46     141
   55.48     140
   55.5     138
   55.52     143
   55.54     146
   55.56     156
   55.58     180
   55.6     133
   55.62     165
   55.64     164
   55.66     170
   55.68     151
   55.7     156
   55.72     154
   55.74     150
   55.76     143
   55.78     165
   55.8     145
   55.82     134
   55.84     168
   55.86     151
   55.88     149
   55.9     145
   55.92     151
   55.94     185
   55.96     176
   55.98     144
   56     164
   56.02     141
   56.04     187
   56.06     165
   56.08     165
   56.1     184
   56.12     186
   56.14     170
   56.16     172
   56.18     160
   56.2     205
   56.22     194
   56.24     196
   56.26     202
   56.28     178
   56.3     187
   56.32     186
   56.34     203
   56.36     213
   56.38     203
   56.4     233
   56.42     240
   56.44     214
   56.46     198
   56.48     261
   56.5     241
   56.52     239
   56.54     252
   56.56     268
   56.58     268
   56.6     238
   56.62     260
   56.64     300
   56.66     301
   56.68     283
   56.7     293
   56.72     306
   56.74     313
   56.76     316
   56.78     319
   56.8     315
   56.82     364
   56.84     341
   56.86     361
   56.88     354
   56.9     341
   56.92     353
   56.94     359
   56.96     374
   56.98     410
   57     393
   57.02     383
   57.04     437
   57.06     405
   57.08     417
   57.1     420
   57.12     390
   57.14     403
   57.16     408
   57.18     393
   57.2     421
   57.22     395
   57.24     400
   57.26     423
   57.28     398
   57.3     410
   57.32     379
   57.34     414
   57.36     399
   57.38     387
   57.4     392
   57.42     428
   57.44     363
   57.46     343
   57.48     368
   57.5     392
   57.52     347
   57.54     338
   57.56     281
   57.58     371
   57.6     337
   57.62     314
   57.64     308
   57.66     341
   57.68     286
   57.7     281
   57.72     320
   57.74     236
   57.76     296
   57.78     274
   57.8     268
   57.82     272
   57.84     243
   57.86     271
   57.88     217
   57.9     234
   57.92     248
   57.94     237
   57.96     203
   57.98     209
   58     216
   58.02     194
   58.04     185
   58.06     219
   58.08     205
   58.1     190
   58.12     180
   58.14     201
   58.16     204
   58.18     195
   58.2     177
   58.22     174
   58.24     153
   58.26     166
   58.28     177
   58.3     180
   58.32     174
   58.34     158
   58.36     153
   58.38     144
   58.4     171
   58.42     159
   58.44     157
   58.46     154
   58.48     147
   58.5     136
   58.52     158
   58.54     140
   58.56     158
   58.58     168
   58.6     158
   58.62     160
   58.64     135
   58.66     154
   58.68     156
   58.7     135
   58.72     135
   58.74     147
   58.76     126
   58.78     143
   58.8     157
   58.82     142
   58.84     140
   58.86     142
   58.88     145
   58.9     155
   58.92     140
   58.94     133
   58.96     152
   58.98     134
   59     121
   59.02     150
   59.04     163
   59.06     140
   59.08     141
   59.1     147
   59.12     124
   59.14     141
   59.16     143
   59.18     156
   59.2     144
   59.22     137
   59.24     158
   59.26     148
   59.28     162
   59.3     135
   59.32     142
   59.34     151
   59.36     134
   59.38     135
   59.4     120
   59.42     145
   59.44     160
   59.46     137
   59.48     130
   59.5     132
   59.52     122
   59.54     142
   59.56     147
   59.58     137
   59.6     132
   59.62     154
   59.64     134
   59.66     143
   59.68     136
   59.7     139
   59.72     139
   59.74     130
   59.76     141
   59.78     157
   59.8     149
   59.82     125
   59.84     131
   59.86     157
   59.88     151
   59.9     141
   59.92     133
   59.94     147
   59.96     145
   59.98     138
   60     153
   60.02     148
   60.04     136
   60.06     139
   60.08     110
   60.1     149
   60.12     136
   60.14     158
   60.16     136
   60.18     156
   60.2     160
   60.22     145
   60.24     128
   60.26     149
   60.28     146
   60.3     147
   60.32     135
   60.34     141
   60.36     158
   60.38     136
   60.4     161
   60.42     137
   60.44     155
   60.46     146
   60.48     159
   60.5     140
   60.52     131
   60.54     131
   60.56     169
   60.58     139
   60.6     144
   60.62     138
   60.64     134
   60.66     163
   60.68     140
   60.7     146
   60.72     131
   60.74     138
   60.76     149
   60.78     175
   60.8     149
   60.82     151
   60.84     125
   60.86     156
   60.88     162
   60.9     150
   60.92     130
   60.94     159
   60.96     151
   60.98     152
   61     140
   61.02     149
   61.04     143
   61.06     144
   61.08     154
   61.1     148
   61.12     153
   61.14     165
   61.16     162
   61.18     138
   61.2     168
   61.22     165
   61.24     170
   61.26     154
   61.28     178
   61.3     185
   61.32     162
   61.34     159
   61.36     179
   61.38     160
   61.4     188
   61.42     168
   61.44     161
   61.46     166
   61.48     167
   61.5     193
   61.52     164
   61.54     159
   61.56     175
   61.58     175
   61.6     192
   61.62     173
   61.64     177
   61.66     199
   61.68     192
   61.7     215
   61.72     213
   61.74     199
   61.76     189
   61.78     207
   61.8     192
   61.82     199
   61.84     201
   61.86     226
   61.88     237
   61.9     193
   61.92     235
   61.94     252
   61.96     265
   61.98     238
   62     253
   62.02     259
   62.04     258
   62.06     269
   62.08     280
   62.1     305
   62.12     298
   62.14     256
   62.16     299
   62.18     305
   62.2     323
   62.22     317
   62.24     318
   62.26     343
   62.28     313
   62.3     345
   62.32     374
   62.34     377
   62.36     374
   62.38     371
   62.4     415
   62.42     429
   62.44     408
   62.46     452
   62.48     443
   62.5     430
   62.52     500
   62.54     427
   62.56     481
   62.58     477
   62.6     465
   62.62     479
   62.64     499
   62.66     492
   62.68     509
   62.7     514
   62.72     482
   62.74     490
   62.76     535
   62.78     524
   62.8     517
   62.82     535
   62.84     532
   62.86     503
   62.88     526
   62.9     503
   62.92     505
   62.94     524
   62.96     482
   62.98     493
   63     503
   63.02     486
   63.04     483
   63.06     461
   63.08     504
   63.1     453
   63.12     449
   63.14     433
   63.16     423
   63.18     460
   63.2     433
   63.22     420
   63.24     430
   63.26     411
   63.28     380
   63.3     364
   63.32     358
   63.34     365
   63.36     315
   63.38     330
   63.4     348
   63.42     310
   63.44     317
   63.46     320
   63.48     285
   63.5     284
   63.52     290
   63.54     282
   63.56     237
   63.58     251
   63.6     260
   63.62     239
   63.64     253
   63.66     225
   63.68     262
   63.7     236
   63.72     204
   63.74     214
   63.76     216
   63.78     212
   63.8     185
   63.82     207
   63.84     212
   63.86     210
   63.88     195
   63.9     182
   63.92     177
   63.94     212
   63.96     203
   63.98     185
   64     158
   64.02     180
   64.04     182
   64.06     190
   64.08     172
   64.1     167
   64.12     163
   64.14     190
   64.16     151
   64.18     164
   64.2     184
   64.22     143
   64.24     169
   64.26     167
   64.28     186
   64.3     176
   64.32     151
   64.34     154
   64.36     165
   64.38     157
   64.4     160
   64.42     155
   64.44     145
   64.46     170
   64.48     157
   64.5     151
   64.52     176
   64.54     155
   64.56     143
   64.58     142
   64.6     152
   64.62     163
   64.64     168
   64.66     152
   64.68     144
   64.7     173
   64.72     148
   64.74     146
   64.76     159
   64.78     145
   64.8     131
   64.82     147
   64.84     130
   64.86     141
   64.88     132
   64.9     147
   64.92     129
   64.94     171
   64.96     142
   64.98     141
   65     140
   65.02     151
   65.04     149
   65.06     133
   65.08     141
   65.1     138
   65.12     141
   65.14     103
   65.16     129
   65.18     123
   65.2     158
   65.22     133
   65.24     139
   65.26     139
   65.28     119
   65.3     153
   65.32     132
   65.34     117
   65.36     135
   65.38     133
   65.4     146
   65.42     139
   65.44     137
   65.46     140
   65.48     151
   65.5     135
   65.52     121
   65.54     126
   65.56     118
   65.58     104
   65.6     130
   65.62     115
   65.64     120
   65.66     134
   65.68     132
   65.7     146
   65.72     143
   65.74     137
   65.76     141
   65.78     139
   65.8     108
   65.82     132
   65.84     128
   65.86     128
   65.88     145
   65.9     132
   65.92     123
   65.94     132
   65.96     111
   65.98     125
   66     122
   66.02     130
   66.04     143
   66.06     103
   66.08     129
   66.1     136
   66.12     135
   66.14     136
   66.16     156
   66.18     111
   66.2     114
   66.22     132
   66.24     115
   66.26     139
   66.28     120
   66.3     104
   66.32     110
   66.34     118
   66.36     115
   66.38     132
   66.4     128
   66.42     132
   66.44     122
   66.46     114
   66.48     126
   66.5     119
   66.52     109
   66.54     128
   66.56     139
   66.58     131
   66.6     126
   66.62     134
   66.64     144
   66.66     118
   66.68     116
   66.7     139
   66.72     122
   66.74     133
   66.76     115
   66.78     122
   66.8     118
   66.82     138
   66.84     125
   66.86     126
   66.88     113
   66.9     129
   66.92     111
   66.94     113
   66.96     128
   66.98     127
   67     120
   67.02     122
   67.04     126
   67.06     126
   67.08     140
   67.1     136
   67.12     115
   67.14     133
   67.16     125
   67.18     115
   67.2     120
   67.22     126
   67.24     128
   67.26     125
   67.28     126
   67.3     103
   67.32     140
   67.34     128
   67.36     127
   67.38     111
   67.4     137
   67.42     114
   67.44     136
   67.46     130
   67.48     128
   67.5     117
   67.52     129
   67.54     135
   67.56     110
   67.58     132
   67.6     131
   67.62     126
   67.64     130
   67.66     122
   67.68     126
   67.7     126
   67.72     141
   67.74     116
   67.76     122
   67.78     106
   67.8     116
   67.82     113
   67.84     110
   67.86     125
   67.88     112
   67.9     111
   67.92     121
   67.94     117
   67.96     96
   67.98     127
   68     119
   68.02     129
   68.04     128
   68.06     119
   68.08     122
   68.1     96
   68.12     105
   68.14     129
   68.16     128
   68.18     115
   68.2     115
   68.22     114
   68.24     138
   68.26     131
   68.28     123
   68.3     104
   68.32     126
   68.34     108
   68.36     133
   68.38     123
   68.4     126
   68.42     103
   68.44     131
   68.46     133
   68.48     119
   68.5     146
   68.52     135
   68.54     107
   68.56     129
   68.58     135
   68.6     118
   68.62     133
   68.64     152
   68.66     113
   68.68     128
   68.7     118
   68.72     105
   68.74     113
   68.76     105
   68.78     117
   68.8     130
   68.82     106
   68.84     134
   68.86     122
   68.88     111
   68.9     116
   68.92     131
   68.94     121
   68.96     118
   68.98     133
   69     105
   69.02     114
   69.04     126
   69.06     120
   69.08     97
   69.1     135
   69.12     144
   69.14     114
   69.16     141
   69.18     140
   69.2     150
   69.22     134
   69.24     135
   69.26     121
   69.28     113
   69.3     108
   69.32     137
   69.34     105
   69.36     112
   69.38     127
   69.4     147
   69.42     136
   69.44     140
   69.46     130
   69.48     133
   69.5     118
   69.52     119
   69.54     111
   69.56     112
   69.58     138
   69.6     121
   69.62     131
   69.64     113
   69.66     125
   69.68     116
   69.7     104
   69.72     125
   69.74     131
   69.76     139
   69.78     116
   69.8     114
   69.82     133
   69.84     108
   69.86     134
   69.88     115
   69.9     108
   69.92     112
   69.94     125
   69.96     128
   69.98     119
   70     117
   70.02     110
   70.04     116
   70.06     112
   70.08     123
   70.1     123
   70.12     139
   70.14     121
   70.16     156
   70.18     141
   70.2     118
   70.22     121
   70.24     120
   70.26     125
   70.28     115
   70.3     143
   70.32     129
   70.34     124
   70.36     119
   70.38     131
   70.4     116
   70.42     131
   70.44     124
   70.46     120
   70.48     124
   70.5     125
   70.52     144
   70.54     150
   70.56     157
   70.58     138
   70.6     131
   70.62     124
   70.64     123
   70.66     129
   70.68     145
   70.7     149
   70.72     141
   70.74     137
   70.76     138
   70.78     161
   70.8     127
   70.82     135
   70.84     149
   70.86     134
   70.88     148
   70.9     159
   70.92     145
   70.94     146
   70.96     129
   70.98     131
   71     134
   71.02     130
   71.04     148
   71.06     148
   71.08     164
   71.1     146
   71.12     168
   71.14     128
   71.16     140
   71.18     136
   71.2     179
   71.22     149
   71.24     146
   71.26     147
   71.28     131
   71.3     152
   71.32     123
   71.34     153
   71.36     147
   71.38     126
   71.4     144
   71.42     145
   71.44     156
   71.46     156
   71.48     168
   71.5     136
   71.52     161
   71.54     148
   71.56     166
   71.58     154
   71.6     146
   71.62     145
   71.64     115
   71.66     130
   71.68     140
   71.7     138
   71.72     133
   71.74     131
   71.76     125
   71.78     138
   71.8     155
   71.82     125
   71.84     130
   71.86     144
   71.88     122
   71.9     127
   71.92     130
   71.94     132
   71.96     149
   71.98     152
   72     117
   72.02     143
   72.04     131
   72.06     131
   72.08     112
   72.1     149
   72.12     149
   72.14     130
   72.16     149
   72.18     120
   72.2     109
   72.22     118
   72.24     136
   72.26     121
   72.28     124
   72.3     123
   72.32     115
   72.34     128
   72.36     126
   72.38     124
   72.4     127
   72.42     120
   72.44     135
   72.46     132
   72.48     134
   72.5     127
   72.52     137
   72.54     118
   72.56     115
   72.58     157
   72.6     125
   72.62     115
   72.64     119
   72.66     137
   72.68     123
   72.7     124
   72.72     115
   72.74     135
   72.76     125
   72.78     120
   72.8     128
   72.82     120
   72.84     106
   72.86     129
   72.88     124
   72.9     133
   72.92     111
   72.94     120
   72.96     155
   72.98     130
   73     104
   73.02     118
   73.04     138
   73.06     113
   73.08     126
   73.1     118
   73.12     150
   73.14     160
   73.16     134
   73.18     142
   73.2     127
   73.22     126
   73.24     134
   73.26     114
   73.28     145
   73.3     143
   73.32     142
   73.34     132
   73.36     134
   73.38     145
   73.4     146
   73.42     136
   73.44     134
   73.46     157
   73.48     147
   73.5     132
   73.52     126
   73.54     163
   73.56     160
   73.58     148
   73.6     146
   73.62     145
   73.64     149
   73.66     149
   73.68     152
   73.7     169
   73.72     144
   73.74     151
   73.76     176
   73.78     140
   73.8     160
   73.82     160
   73.84     161
   73.86     169
   73.88     177
   73.9     177
   73.92     159
   73.94     178
   73.96     193
   73.98     185
   74     181
   74.02     171
   74.04     181
   74.06     157
   74.08     163
   74.1     191
   74.12     171
   74.14     171
   74.16     181
   74.18     145
   74.2     165
   74.22     185
   74.24     213
   74.26     217
   74.28     202
   74.3     165
   74.32     174
   74.34     193
   74.36     185
   74.38     200
   74.4     187
   74.42     179
   74.44     195
   74.46     173
   74.48     176
   74.5     194
   74.52     169
   74.54     182
   74.56     201
   74.58     205
   74.6     178
   74.62     200
   74.64     182
   74.66     150
   74.68     184
   74.7     185
   74.72     193
   74.74     181
   74.76     186
   74.78     174
   74.8     201
   74.82     177
   74.84     178
   74.86     164
   74.88     167
   74.9     196
   74.92     158
   74.94     188
   74.96     175
   74.98     142
   75     153
   75.02     139
   75.04     166
   75.06     145
   75.08     142
   75.1     134
   75.12     155
   75.14     136
   75.16     166
   75.18     172
   75.2     161
   75.22     164
   75.24     155
   75.26     151
   75.28     153
   75.3     137
   75.32     132
   75.34     131
   75.36     160
   75.38     141
   75.4     146
   75.42     146
   75.44     143
   75.46     147
   75.48     159
   75.5     147
   75.52     157
   75.54     170
   75.56     163
   75.58     138
   75.6     136
   75.62     144
   75.64     129
   75.66     153
   75.68     123
   75.7     161
   75.72     137
   75.74     125
   75.76     119
   75.78     129
   75.8     140
   75.82     117
   75.84     130
   75.86     153
   75.88     129
   75.9     125
   75.92     147
   75.94     149
   75.96     133
   75.98     146
   76     128
   76.02     122
   76.04     110
   76.06     124
   76.08     130
   76.1     119
   76.12     122
   76.14     117
   76.16     119
   76.18     115
   76.2     132
   76.22     106
   76.24     141
   76.26     121
   76.28     106
   76.3     127
   76.32     121
   76.34     131
   76.36     108
   76.38     111
   76.4     126
   76.42     125
   76.44     109
   76.46     116
   76.48     136
   76.5     129
   76.52     127
   76.54     123
   76.56     120
   76.58     120
   76.6     110
   76.62     117
   76.64     117
   76.66     106
   76.68     103
   76.7     122
   76.72     116
   76.74     111
   76.76     124
   76.78     110
   76.8     98
   76.82     115
   76.84     108
   76.86     121
   76.88     125
   76.9     125
   76.92     111
   76.94     110
   76.96     119
   76.98     114
   77     129
   77.02     130
   77.04     114
   77.06     103
   77.08     120
   77.1     105
   77.12     128
   77.14     110
   77.16     93
   77.18     129
   77.2     111
   77.22     92
   77.24     121
   77.26     144
   77.28     119
   77.3     136
   77.32     120
   77.34     110
   77.36     100
   77.38     124
   77.4     128
   77.42     122
   77.44     117
   77.46     116
   77.48     120
   77.5     112
   77.52     126
   77.54     128
   77.56     115
   77.58     96
   77.6     125
   77.62     123
   77.64     112
   77.66     127
   77.68     117
   77.7     118
   77.72     131
   77.74     128
   77.76     116
   77.78     112
   77.8     118
   77.82     135
   77.84     104
   77.86     125
   77.88     122
   77.9     110
   77.92     115
   77.94     122
   77.96     111
   77.98     111
   78     105
   78.02     120
   78.04     141
   78.06     120
   78.08     128
   78.1     109
   78.12     126
   78.14     109
   78.16     114
   78.18     108
   78.2     119
   78.22     133
   78.24     112
   78.26     138
   78.28     120
   78.3     122
   78.32     91
   78.34     99
   78.36     120
   78.38     110
   78.4     102
   78.42     128
   78.44     101
   78.46     133
   78.48     129
   78.5     104
   78.52     119
   78.54     105
   78.56     131
   78.58     109
   78.6     135
   78.62     112
   78.64     123
   78.66     118
   78.68     120
   78.7     134
   78.72     124
   78.74     112
   78.76     131
   78.78     111
   78.8     146
   78.82     105
   78.84     137
   78.86     143
   78.88     117
   78.9     143
   78.92     113
   78.94     106
   78.96     121
   78.98     130
   79     127
   79.02     115
   79.04     101
   79.06     127
   79.08     134
   79.1     121
   79.12     138
   79.14     141
   79.16     130
   79.18     128
   79.2     128
   79.22     141
   79.24     107
   79.26     137
   79.28     125
   79.3     116
   79.32     130
   79.34     148
   79.36     111
   79.38     98
   79.4     118
   79.42     119
   79.44     143
   79.46     121
   79.48     145
   79.5     163
   79.52     121
   79.54     135
   79.56     126
   79.58     135
   79.6     110
   79.62     114
   79.64     119
   79.66     128
   79.68     122
   79.7     141
   79.72     134
   79.74     132
   79.76     124
   79.78     128
   79.8     124
   79.82     126
   79.84     118
   79.86     133
   79.88     132
   79.9     106
   79.92     115
   79.94     137
   79.96     103
   79.98     115
   80     131
   80.02     130
   80.04     133
   80.06     117
   80.08     122
   80.1     111
   80.12     120
   80.14     123
   80.16     114
   80.18     99
   80.2     119
   80.22     113
   80.24     140
   80.26     114
   80.28     122
   80.3     108
   80.32     118
   80.34     103
   80.36     123
   80.38     120
   80.4     98
   80.42     117
   80.44     108
   80.46     112
   80.48     100
   80.5     111
   80.52     124
   80.54     110
   80.56     105
   80.58     119
   80.6     119
   80.62     102
   80.64     119
   80.66     115
   80.68     118
   80.7     117
   80.72     113
   80.74     128
   80.76     118
   80.78     128
   80.8     96
   80.82     106
   80.84     94
   80.86     125
   80.88     118
   80.9     122
   80.92     125
   80.94     113
   80.96     99
   80.98     103
   81     100
   81.02     109
   81.04     122
   81.06     116
   81.08     115
   81.1     102
   81.12     133
   81.14     111
   81.16     89
   81.18     101
   81.2     102
   81.22     98
   81.24     98
   81.26     127
   81.28     124
   81.3     103
   81.32     93
   81.34     117
   81.36     125
   81.38     97
   81.4     117
   81.42     105
   81.44     104
   81.46     96
   81.48     118
   81.5     110
   81.52     106
   81.54     92
   81.56     93
   81.58     94
   81.6     115
   81.62     107
   81.64     105
   81.66     106
   81.68     113
   81.7     100
   81.72     86
   81.74     115
   81.76     82
   81.78     111
   81.8     95
   81.82     105
   81.84     98
   81.86     92
   81.88     94
   81.9     102
   81.92     104
   81.94     85
   81.96     113
   81.98     108
   82     92
   82.02     115
   82.04     102
   82.06     103
   82.08     108
   82.1     105
   82.12     103
   82.14     103
   82.16     106
   82.18     114
   82.2     108
   82.22     86
   82.24     109
   82.26     129
   82.28     100
   82.3     112
   82.32     86
   82.34     110
   82.36     104
   82.38     94
   82.4     100
   82.42     89
   82.44     105
   82.46     97
   82.48     131
   82.5     108
   82.52     93
   82.54     114
   82.56     113
   82.58     94
   82.6     98
   82.62     95
   82.64     114
   82.66     120
   82.68     90
   82.7     113
   82.72     117
   82.74     106
   82.76     88
   82.78     92
   82.8     107
   82.82     93
   82.84     114
   82.86     98
   82.88     113
   82.9     104
   82.92     97
   82.94     90
   82.96     90
   82.98     105
   83     93
   83.02     86
   83.04     96
   83.06     107
   83.08     124
   83.1     100
   83.12     104
   83.14     97
   83.16     103
   83.18     108
   83.2     91
   83.22     103
   83.24     113
   83.26     109
   83.28     92
   83.3     107
   83.32     108
   83.34     91
   83.36     108
   83.38     98
   83.4     108
   83.42     113
   83.44     85
   83.46     109
   83.48     113
   83.5     121
   83.52     121
   83.54     95
   83.56     94
   83.58     104
   83.6     112
   83.62     106
   83.64     100
   83.66     101
   83.68     104
   83.7     98
   83.72     110
   83.74     105
   83.76     104
   83.78     90
   83.8     100
   83.82     96
   83.84     107
   83.86     101
   83.88     122
   83.9     84
   83.92     97
   83.94     111
   83.96     100
   83.98     99
   84     86
   84.02     98
   84.04     78
   84.06     108
   84.08     92
   84.1     100
   84.12     99
   84.14     84
   84.16     115
   84.18     95
   84.2     99
   84.22     91
   84.24     84
   84.26     82
   84.28     98
   84.3     87
   84.32     98
   84.34     104
   84.36     94
   84.38     90
   84.4     78
   84.42     123
   84.44     94
   84.46     107
   84.48     98
   84.5     85
   84.52     99
   84.54     99
   84.56     80
   84.58     93
   84.6     93
   84.62     107
   84.64     90
   84.66     102
   84.68     93
   84.7     88
   84.72     88
   84.74     100
   84.76     104
   84.78     105
   84.8     76
   84.82     96
   84.84     91
   84.86     93
   84.88     79
   84.9     100
   84.92     93
   84.94     96
   84.96     101
   84.98     106
   85     95
   85.02     119
   85.04     100
   85.06     74
   85.08     79
   85.1     95
   85.12     111
   85.14     93
   85.16     102
   85.18     89
   85.2     96
   85.22     91
   85.24     102
   85.26     86
   85.28     97
   85.3     115
   85.32     96
   85.34     88
   85.36     91
   85.38     99
   85.4     84
   85.42     94
   85.44     84
   85.46     98
   85.48     101
   85.5     90
   85.52     110
   85.54     81
   85.56     95
   85.58     89
   85.6     86
   85.62     84
   85.64     94
   85.66     105
   85.68     92
   85.7     94
   85.72     101
   85.74     98
   85.76     95
   85.78     103
   85.8     88
   85.82     115
   85.84     95
   85.86     95
   85.88     82
   85.9     91
   85.92     76
   85.94     102
   85.96     93
   85.98     102
   86     83
   86.02     108
   86.04     111
   86.06     101
   86.08     78
   86.1     91
   86.12     98
   86.14     92
   86.16     77
   86.18     110
   86.2     88
   86.22     85
   86.24     111
   86.26     103
   86.28     97
   86.3     108
   86.32     110
   86.34     94
   86.36     107
   86.38     98
   86.4     101
   86.42     117
   86.44     100
   86.46     106
   86.48     98
   86.5     105
   86.52     104
   86.54     98
   86.56     96
   86.58     106
   86.6     102
   86.62     109
   86.64     105
   86.66     118
   86.68     123
   86.7     108
   86.72     107
   86.74     101
   86.76     102
   86.78     124
   86.8     98
   86.82     124
   86.84     106
   86.86     106
   86.88     127
   86.9     129
   86.92     123
   86.94     125
   86.96     130
   86.98     107
   87     118
   87.02     120
   87.04     140
   87.06     120
   87.08     102
   87.1     114
   87.12     131
   87.14     126
   87.16     118
   87.18     119
   87.2     93
   87.22     118
   87.24     131
   87.26     120
   87.28     123
   87.3     111
   87.32     105
   87.34     134
   87.36     116
   87.38     118
   87.4     136
   87.42     121
   87.44     111
   87.46     94
   87.48     110
   87.5     115
   87.52     105
   87.54     103
   87.56     97
   87.58     117
   87.6     112
   87.62     106
   87.64     123
   87.66     101
   87.68     121
   87.7     126
   87.72     111
   87.74     114
   87.76     101
   87.78     118
   87.8     104
   87.82     90
   87.84     120
   87.86     126
   87.88     116
   87.9     93
   87.92     105
   87.94     112
   87.96     109
   87.98     131
   88     105
   88.02     104
   88.04     79
   88.06     98
   88.08     93
   88.1     108
   88.12     109
   88.14     91
   88.16     102
   88.18     99
   88.2     98
   88.22     100
   88.24     101
   88.26     92
   88.28     83
   88.3     99
   88.32     116
   88.34     97
   88.36     110
   88.38     97
   88.4     105
   88.42     107
   88.44     111
   88.46     104
   88.48     104
   88.5     80
   88.52     93
   88.54     101
   88.56     93
   88.58     109
   88.6     109
   88.62     106
   88.64     106
   88.66     107
   88.68     109
   88.7     107
   88.72     94
   88.74     98
   88.76     101
   88.78     99
   88.8     106
   88.82     108
   88.84     97
   88.86     115
   88.88     112
   88.9     82
   88.92     89
   88.94     85
   88.96     102
   88.98     132
   89     111
   89.02     97
   89.04     100
   89.06     98
   89.08     131
   89.1     119
   89.12     109
   89.14     103
   89.16     99
   89.18     89
   89.2     117
   89.22     115
   89.24     122
   89.26     119
   89.28     111
   89.3     120
   89.32     135
   89.34     92
   89.36     133
   89.38     124
   89.4     138
   89.42     131
   89.44     109
   89.46     133
   89.48     131
   89.5     126
   89.52     138
   89.54     129
   89.56     131
   89.58     138
   89.6     144
   89.62     144
   89.64     127
   89.66     145
   89.68     160
   89.7     135
   89.72     155
   89.74     170
   89.76     158
   89.78     148
   89.8     150
   89.82     156
   89.84     145
   89.86     164
   89.88     163
   89.9     157
   89.92     145
   89.94     160
   89.96     176
   89.98     180
   90     169
